##TITLE=TW 48
##JCAMP-DX=4.24
##DATA TYPE=RAMAN SPECTRUM
##DATE=10/1/2014
##SAMPLING PROCEDURE=FT-Raman, Ge-Diode (100mW=SRL130)
##ORIGIN=Administrator
##XUNITS=1/CM
##YUNITS=ABSORBANCE
##RESOLUTION=4
##FIRSTX=5001.8167
##LASTX=3.0760597
##DELTAX=-1.9285265
##MAXY=0.068006396
##MINY=-0.00030901842
##XFACTOR=1
##YFACTOR=6.3335892e-011
##NPOINTS=2593
##FIRSTY=0.0026836544
##XYDATA=(X++(Y..Y))
5002+42371779+43339541+33710447+11220871+6489772-3338730+6704796+7725582
4986+2130873+19405101+30754651+25496028+13847315+7965604+10486837+7569906
4971-137781+1068047+10246007+14385235+15131518+0+10263711+18032230+16261617
4954+12542864+31458409+48392139+42044810+45444343+40922709+15742519+7703070
4938+14924905+19131936+33660907+23320439+23681699+22596669+25195189+25929429
4923+6157759+36775408+44876632+23593016+30125652+33724666+56396680+44778700
4907+35109315+29486109+38523450+49524650+58081257+51979890+53214774+62419408
4892+54226223+52442920+47289022+34421336+33164983+32232395+36991403+15316662
4876+11992754+42734216+45284211+30983586+52894936+52814444+43970526+37718481
4861+41799171+27834396+18015114+32473651+27858424+55161267+68928208+52100629
4846+20707464+14457846+31471657+21300070+13589722+16856267+36241120+33950542
4830+38838788+43675112+37083806+33873814+34069178+41605807+31872061+17352324
4815+40275564+47539337+42949122+46974552+42387013+35553935+19196474+3576472
4799+25728315+33635013+35700524+64587263+69840504+38955453+15115534+7691262
4784+20646970+36962244+33019850+41866782+39628243+19352591+19958902+20866523
4768+6578955+4831075+19107173+25821145+25750887+27266509+19995590+38237065
4753+21756218+13312660+27332194+35759710+18800496+14570968+19485138+22047808
4738+25924120+24844707+17141123+13149851+15044688+9604538+27751390+37113450
4722+12753874+7969486+17193236+17724142+21617687+16198270+23076668+26802729
4707+46445852+17912565+21786524+29808990+41253090+44062164+21888103-2579860
4691-4879041+576460+5672055+24047106+41366888+32570230+21634686+30933517
4676+33624602+27031501+28643512+34108747+20064613+8137235+3592089+27784622
4660+19830796-3028215+7847041+4943241+8923234+22713349+29485609+23404593
4645+25719345+32845219+28426855+20623428+23992861+17589463+9507179+16303011
4630+22684204+32375072+43138854+40408420+19328373+856008+0+11049446+38014733
4612+33647776+15966057+18870578+31208667+40657529+28611485+9194988+33247505
4597+30760430+16185566+5706096+11992387+28711799+47259158+24828973-2551407
4581+2109963+5579990-278959-367892+18548167+42977810+56013540+50990777+36167671
4564+23929646+11089339+140810+7311709+31552988+50913461+42908684+21784774
4549+19418835+40792001+40206718+21544326+35609136+37557011+47824090+47442567
4533+34796198+36002893+42137992+36530108+51974126+45483398+35965308+31202374
4518+20968983+9367134+3225020+5919428+21987902+40202660+46395151+41275632
4502+32469813+16953288+6602350+16459187+22747757+15764127+5912187+12945003
4487+9679023+34548118+29517297+26836615+40969426+47163100+30031337+6927363
4471+4792424+11640493+7598704+4445361+7512764+16787516+3082159+5045268+18685970
4454+30925459+19894739+14440303+15310979+30167993+38124605+36318900+32515280
4439+33089829+43456949+35364982+25441394+4425569+7447145+32622556+45480619
4423+36745463+29353232+18462602+4201590+5302950+12947040+10518033+9003330
4408+12232827+23896885+40396156+31137623+1122203+19696434+24302685+6751475
4392+15043607+20644382+27795216+30505300+16887985+15462729+30282402+36944959
4377+32168628+26691195+24200157+35103624+30124858+14300670+20689892+5055708
4362+4920758+19001066+21270948+23699521+35947861+25907835+14522737+0+4283553
4344+20136260+16353175+33441546+36606792+25130974+21619025+30966925+50823690
4329+34350563+14898297+21591344+20577351+33525030+44234626+51540395+40728162
4313+17120507+4448317+18234858+42710144+57790858+49708545+40257610+40013604
4298+36255369+38439744+34783882+28739936+24817055+6543958+24349290+37148675
4282+39237486+51036743+51686418+39086132+19731372+11043969+7312783+10039453
4267+22470791+27009996+24363466+23129971+23664245+46908345+68729322+69057739
4252+56167040+45427947+50707142+49831224+25975057+27529616+19836884+13233314
4236+35882044+31229908+30354152+34124886+32682595+16199778+3329113+26271779
4221+24824783+13738281+33688713+46831418+22781489+2641002+24872660+26706635
4205+6708942+0+4070169+11963470+37437780+36993542+19977665+23338856+38185688
4188+40651161+31916667+20041387+20319449+32861159+47599655+40624304+48338475
4173+34982415+36714539+41238717+43329446+53989679+57159528+53300494+41686549
4157+28336482+17143343+14248307+21204145+14937051+21525394+19813842+12690689
4142+5177447+1486154+14076999+24423416+30424293+29078485+36914822+37653355
4126+23701947+9532545+13640195+5666805+4652092+17892707+9678685+8809465
4111+12043669+15784493+16446644+25005920+31268103+22745338+8118950+0+4472388
4093+9708726+24489535+41080974+43057178+25926105+22412340+27094922+17827455
4078+38128950+35976425+25120659+19121620+20584799+29153397+34214605+29477374
4063+38197017+50012509+68349703+54103455+39806520+25803999+1177941+16554377
4047+16823925+16261125+20755680+23478975+19456920+13029789+17823434+30216900
4032+13958694+129723+8205706+3512111+5007507+16722133+35784752+50584918
4016+52499084+46548482+28284347+19600465+25839018+14012042+6648161+12756491
4001+16035705+19836340+23315366+18757449+13185179+22397055+15468177+2457122
3985+31374115+31659103+11800802+0+15867221+31030787+34233023+29257285+20475478
3968+13247394+7271926+7359587+18443390+8965135+20580630+28934896+29418961
3953+26376365+19463787+9823988+15807653+33627609+40202549+31104611+15090529
3937+9094968+7252222+17183310+19835737+9491600+25268461+39368098+37109987
3922+20725558+20578410+13142889+15108829+16176037+24607961+39803197+46575262
3906+36760204+30694554+32072347+35564375+16578172+10234243+31472220+36645068
3891+23127975+19209884+22316827+26245285+27041905+13571205+0+10360033+26957538
3874+30071664+19254902+14959593+18434343+25633732+27982827+13031440+3390692
3858+21473050+29874657+23149686+31082771+32348446+23738425+16132365+2760718
3843+1419719+11683430+34170543+27542747+4573081+1459598+6650323+20936773
3827+30690098+25400997+18625605+22139384+21296618+10546445+0+29529524+42962304
3810+34934909+21440296+8153237+10233854+31531744+45051663+32606646+9881637
3795+22632662+19639134+12437323+17452116+13826203+18293312+36643097+46063061
3779+29080879+22203206+29031166+26867373+24710326+27924322+30736094+28631605
3764+40387903+30632332+12509625+14878722+15963179+17410024+2247200+5968545
3748+23243633+36634679+38122006+4831814+4147187+7724829+15451741+38571243
3733+40186690+24568961+16698043+21627374+36457210+34744026+24805957+18168170
3717+11069856+7624650+0+9595943+40446820+62324343+59455485+37797037+28453018
3700+13061709+24575291+34371851+25771631+22770362+28871343+12798219+6453569
3685+27073156+34488263+39944029+33269334+16193142+8577682+9746017+16761412
3669+21864193+17242411+34467975+42291118+28673553+31825403+32440989+11559732
3654+19844938+27580332+24107909+17048635+16405141+16844155+9854702+13162188
3638+12230482+10961678+18981828+41979507+47137948+30446140+24363660+25387627
3623+26516322+20671460+19183328+14188382+28665010+40070937+39022465+38908925
3607+29979926+24194011+26530490+16987663+0+1258757+17947698+16805691+6959059
3590+4366211+20488540+21843570+4697543+7134608+6350336+12891865+18416657
3575+2900852+11688915+21618382+20887660+18965926+14532556+2837582+16505778
3559+22355158+12651674+2888394+14305618+40008630+37432358+25440934+10072016
3544+10053826+23402710+28910380+29873021+23771683+18960614+16546010+8093169
3528+2032338+6816421+13259734+15849281+24748848+33075506+33094604+21596310
3513+16074756+23060085+33583937+34163246+17011168+16324104+32069318+25552982
3498+35900303+38619996+39876234+37825247+28851825+18510757+22233438+35557869
3482+38445336+35718905+21687561+4464257+2684685+1698030+24486257+44249404
3467+40090115+23839846+18879803+20511925+28458364+39858850+31448531+5032249
3451+4117677+4823954-1359225+3029619+14515905+18051642+11726743+2868997+6089311
3434+9697167+24469684+27320294+27534182+29964077+26387729+15085603+14733824
3418+23300303+27476230+33334045+33432521+19822709+15880405+18241315+10721539
3403+11058798+28700534+45291990+52262488+49439269+40022835+28507772+15473454
3388+5081928+0+6004200+17544184+22872122+20076134+19458903+21773191+21373320
3370+25303706+32513078+29742583+23114826+31717061+39763565+34372730+29828757
3355+33218846+29439984+15013619+13480405+28703160+37217742+38965585+43605163
3339+33356495+15482057+13737296+24425480+29253590+32354258+44111615+53380824
3324+51330881+32598647+18409715+25125350+31791068+20825155+2137575+0+19544693
3307+42434200+54499682+61354663+65519808+61630894+46979129+40404530+55472804
3291+68955249+66485070+67057979+70636554+57901557+43100446+46999233+59757894
3276+58793102+47362185+41632113+41261725+43503717+52544727+54195472+39843296
3260+28583400+39194887+57025662+61867717+54381157+48139218+46718554+42742134
3245+42188024+57011406+72534508+72050201+63745724+60426875+66471468+73151318
3230+81634836+85632320+77751495+70446388+76861638+92468243+116036997+128936342
3214+118194963+103881898+96362186+88414727+82686060+87829488+101951881
3201+118439175+118558885+92406293+57303882+40185022+51370763+72045061+86118907
3185+86050435+70428669+61136999+65218034+69567397+72420908+69643699+67008094
3170+84499022+110142978+113207234+105300933+108856996+114449198+98360638
3156+67926331+57657282+63754260+66537903+72100056+83574778+101554469+116224112
3141+100909082+66316527+55358844+69683798+82628801+86009939+83714920+87245507
3125+99911808+100459815+78751122+64683541+77838215+88086258+83255095+82609465
3110+85781005+83350072+79011281+78175977+82398985+92798462+96017527+79101354
3095+60164219+66737686+91649026+106695140+101445752+80870393+64560515+72139479
3079+97354659+111454171+98460915+82055598+80756830+90240629+105864336+120295251
3064+125772934+124620807+121427563+122494316+126111682+125883629+124583075
3050+117081891+102830180+100975252+110054427+114174054+114488584+114075659
3037+107872243+101826157+109731266+121583784+115495033+99183156+98012332
3023+111254601+121081684+121482029+119249239+121757062+134411666+147868826
3010+151851363+150520694+148297698+144867447+142244811+142528123+140732439
2996+134858991+130490931+127878618+125304140+125806563+129396137+135715146
2983+142032228+145054517+147982874+154725137+156929900+149068846+143990044
2969+147467158+144777529+140014374+145124217+143400570+135726542+139155646
2956+142081165+129874048+114802025+115280436+131370481+145572674+144097534
2942+137762924+142235944+155436673+159709389+149238344+137931011+133714393
2929+141598181+164077640+176787591+163035591+148700439+151126564+154310191
2915+148843764+148991809+165610804+189106109+197790630+180880706+154678568
2902+146182499+156233672+163442641+160429512+156410479+151641604+138920756
2888+127724721+128493016+135671679+147676815+165223723+179198938+182815068
2875+182526919+182793350+182205934+186581846+192356730+192363053+196561922
2861+199952750+189139194+181310269+184387332+183247601+188315963+208673842
2848+214855334+199275094+200424383+219314091+214936032+187542359+175353564
2834+185263029+201254981+215565576+223363195+222906091+221237395+228142275
2821+237148325+232625574+220533329+220623115+234369234+243358917+239866584
2807+231296684+221280774+221166843+236298332+243288204+230175378+217162485
2794+215915617+224963913+247029881+260330336+238461261+209025794+208435629
2780+221336033+229351838+240759794+253854239+254722069+243743778+237959028
2767+247066407+269148330+295223465+308028673+303198156+295355894+294677487
2753+297139903+298462249+301854106+306063328+306930599+300944810+293922970
2740+296028125+301772349+305051482+308670906+310300282+315769444+336418414
2726+359977639+363126696+345231526+331815906+336950482+340900581+333000794
2713+326372330+332020063+345494913+345977279+332662591+326162526+332406468
2699+344054049+346134618+335629900+329813300+336640893+347505371+355020899
2686+361093975+369876855+383439520+395283936+394009703+377634449+363150164
2672+366874167+376597605+374271177+363208629+354191007+349085840+350777857
2659+359908351+365499178+377575778+401769737+407201403+393847718+391184939
2645+392788817+384478481+385327872+398766343+398442639+385565203+382773701
2632+382618127+372126232+370272818+382860869+382697325+370106863+370533528
2618+384382314+402819786+421029602+428951975+425940846+417699974+409068904
2605+411848554+421063746+419526008+414657025+419068875+428366824+439183336
2591+446643634+439649645+422309070+414033790+420332344+423477431+416839114
2578+417495905+423777020+421811146+421726919+432538167+441780238+444993936
2564+452173496+462999301+468060296+458565718+436382276+422269309+431276168
2551+449734373+460263441+467442030+474698054+472255931+467367332+474563243
2537+487998979+493895719+484500779+462990626+440449922+428188517+433512516
2524+449428196+460789009+461379248+454348939+448172578+447935012+449565330
2510+450558589+453065295+459753254+470035816+478456965+486362692+493822373
2497+488500138+469623325+458077500+462657128+468936537+467234579+462264635
2483+468979062+496492357+517366158+497229111+457018070+443018563+457629424
2470+473791904+470752131+446350779+429181218+437265957+446618313+447534109
2456+460437189+481718541+488217282+477080741+461850527+450670049+441479620
2443+439061612+446442359+451245613+450765717+452998566+458551455+463366649
2429+462500025+460016494+458193489+450578676+440954816+434989848+429695287
2416+430076016+439982731+440504682+414077932+380373279+375933256+402741822
2402+430521298+440438012+437427001+434930295+439856890+445495948+448231749
2389+447252783+436014046+423916007+422105119+421894932+429112930+442717356
2375+436117036+422514345+431253140+443195370+436171443+425283437+419999140
2362+414860741+413046265+407709414+394840977+396231258+415344108+428273333
2348+426746653+419715138+413965325+412498787+415436481+423879481+432078151
2335+424562064+401594695+382997091+381999421+390955872+395288023+395881379
2321+401922076+418891568+436137210+433068087+415330256+402902719+401370451
2308+407035536+413024679+406279548+383610563+370404570+383232275+402026360
2294+409401990+408866334+405140538+401940368+410030078+431815588+446701776
2281+434449840+412276514+412459320+433588627+454923737+464968087+458930655
2267+443647445+435184065+437508376+442811994+444014175+436672925+436225908
2254+456465181+473714558+469645588+460703900+461144299+471955871+489133020
2240+503562633+501792094+481800415+465327259+466431626+475675462+480206036
2227+478295715+484480134+499682821+506403895+510934292+515861652+507434386
2213+501694514+511976371+523407001+532973102+538946128+530877652+526013168
2200+544316094+562931813+558759264+544721467+535445516+535881358+553969362
2186+578292074+583415592+571104162+566460834+574467081+576792862+570388817
2173+570627207+581495361+587827589+575363291+555842480+550558800+561355550
2159+580242714+597298580+598907547+592972399+605467930+633164442+644455674
2146+624557134+594682826+587997161+605081437+614313156+603412182+595242244
2132+607013020+624384444+630589037+630813251+630249128+625319592+627326697
2119+641185217+647231178+641802865+638551523+640630093+647059958+655736848
2105+648598167+621044641+611874327+634604718+650713144+646282620+636225683
2092+624177758+619800758+631908325+641108107+638650044+639891809+643739330
2078+643490882+645451521+652272527+651912796+631356671+607949814+611310498
2065+637519444+659672066+658681571+636642703+614179522+601256855+592909876
2051+595613151+614190697+633076862+641363494+641260504+637353107+644384739
2038+660363413+665295008+669702240+687802067+700180373+693028340+678307725
2024+665733496+652391692+641593061+642591555+651358848+660517046+673259435
2011+685530634+690803020+694338511+692280175+682741367+676070347+671680231
1997+670793373+682304820+700290892+709927810+714025542+724834760+727627556
1984+713483475+705431762+703685338+690841781+675254777+669961804+674238814
1970+682679314+687146305+683136330+675283304+671899798+674213875+679647011
1957+691299268+702175833+700890189+698716217+711110463+733821268+751724760
1943+752327880+739857288+729061598+716371027+700277011+700329183+718353958
1930+737569151+746307388+742801717+739805176+745012568+753881852+762048966
1916+763198563+762819540+770691153+773560177+761937976+749058717+743370076
1903+745855018+748617347+739174000+732047670+739523732+743861088+740911601
1889+740448703+735696327+726975324+728061633+735567280+740085914+743423718
1876+747181717+750533519+747880828+741194163+746361677+755082150+744500087
1862+726049352+725634214+740555634+747932999+743781037+748441187+764088656
1849+769516381+762092726+753071104+744258992+739462737+741714996+743952433
1835+742949350+747562093+759533555+762341056+754800589+755133263+759421448
1822+751770991+740531107+738677635+744823292+760646745+782739137+794753536
1808+797363467+803227739+806556720+801210047+795854550+794357280+790479291
1795+779347515+767227243+766181106+777235596+784216822+772380876+752870123
1781+748227148+756709291+757261122+749556905+755100502+773177860+782395699
1768+783780980+790008042+793425955+788950259+784180472+774347044+761104643
1754+761123817+766861866+760043919+747321175+736471136+726163988+725075267
1741+736875922+750932129+764241583+783180625+801210458+798771276+771983325
1727+744854465+740048094+753501181+768499182+775111031+779290991+790484644
1714+800913192+800737091+790381595+775611219+767933589+774508852+786623419
1700+789296226+788783333+797426050+805285546+808806273+810584635+805247608
1687+804318519+812494221+810439002+796874337+787078200+784833940+787727315
1673+791482256+792986467+795736562+797657675+793427602+784050955+771241101
1660+764693482+775364007+789633841+783504536+761068528+744647367+741021002
1646+747591443+765106619+783956493+787238008+778857502+775446411+773389781
1633+766799342+767847832+776307271+778110867+769599314+757419401+756495135
1619+775807201+801652652+818011878+821036946+811721352+802318531+799775476
1606+792903240+785352185+789109361+794302755+791922626+790114914+796327447
1592+799610315+789506912+780049802+783147746+791608479+797798603+801802167
1579+803189037+797781899+789057778+786224750+784051190+770416590+759656308
1565+768109984+774485149+769204704+769645369+776164520+785802672+796421321
1552+797424579+789830529+781755994+776576481+774861584+776568365+785058037
1538+803368432+820265431+817156311+798758218+783501301+779102773+786851338
1525+795273311+791319859+786795697+795222551+809935932+820196496+821580483
1511+817028088+814901582+816274865+814610080+808989256+803518947+801141935
1498+801586717+799521911+792961587+791906981+800915310+807505925+802810249
1484+795499643+799658663+807536863+794305402+767058671+755997829+764852643
1471+775651745+782353703+791339799+796550073+788968022+775479996+764995571
1457+759135769+757498511+762107607+770708328+775230843+774277286+776818694
1444+786315918+787817189+775278604+761842926+752351701+750209550+762211244
1430+779889229+790973127+792158722+783415309+773159685+766674178+760877782
1417+759087597+759642133+758975490+764048189+775649098+781167403+776827458
1403+774087480+774768828+771736172+766686647+763262734+758463891+753193093
1390+755258546+761866865+765098796+771061294+783990784+786679119+769004488
1376+751959856+751383557+761063941+767995994+761489195+750905837+749616547
1363+746579891+732824715+724500674+725478700+720996651+716158753+725300952
1349+743741688+750161672+735307657+720417646+720708913+727842948+737900590
1336+749577139+753681341+750115559+744854995+736849748+725453996+714152471
1322+711803280+722126074+735542988+743943257+741152814+730369710+730467701
1309+743912672+753450833+752731489+748098984+745718502+747929941+750330068
1295+744185469+736078703+746038472+770009981+780789556+774763299+768287085
1282+761320799+754703421+756209280+756903685+747416342+736719407+737393697
1268+743774038+741553541+732051846+723355017+713686044+700433467+696657352
1255+707289705+711033000+705649859+707862827+710181492+710942302+719330219
1241+718564762+703258907+689733768+681594828+681520305+684844522+679199935
1228+670963592+670469580+678826617+694381037+706219805+704415152+701550127
1214+706481898+706721758+701445078+701863745+709222993+717052492+719069244
1201+709002014+695572925+701831218+720020919+723622463+715800845+710561397
1187+707609969+708564644+713998544+712269178+704519730+703282141+704548551
1174+696388965+682753189+673847262+667073076+664639011+672997283+682157010
1160+681771046+677780716+680748554+685654563+680180078+673574464+678852615
1147+684167938+675411292+663779621+667024433+679581899+683894670+679353509
1133+674975568+671751342+669538962+668149269+663140446+654307512+648472649
1120+651656585+663474826+678240143+689644365+694989803+693458535+689587017
1106+689855345+692935173+697291939+699135060+691535716+681472486+683102980
1093+697512272+711626709+712317173+700966594+687903705+680116320+679387094
1079+682690136+687429632+693382248+695272306+684773764+667687077+659029068
1066+655102084+648127740+651593414+676134576+701682467+701377084+687078194
1052+684096945+684862991+674855344+664627012+667311995+672486861+669477379
1039+667909644+677191007+692618379+699325513+686442725+666256094+664915749
1025+683276669+697030317+694488968+682035610+673418832+678042515+693362191
1012+708387719+713487534+714137178+719440679+722635438+718120451+722414400
998+740304011+748204680+740482112+730072973+724427563+726783459+729720948
985+724567903+712201949+697264001+684836346+680154492+683878672+684714299
971+680412292+687256766+704870226+714330689+709909223+701840982+699768706
958+698543233+688288551+680690207+690274717+699176938+691746931+689044833
944+698018342+698128331+692538269+693980780+694592017+690993473+690492167
931+697661022+712548151+724100712+723343371+719057657+717340583+717384343
917+726402613+741250157+743653108+734939927+734599489+744458914+748918495
904+743701574+741024061+745215667+747990582+747300412+749243170+756548601
890+763788978+764178824+753870970+743910789+754988453+777867713+785223903
877+773538003+753830327+735122675+727601853+735924011+745923894+738376134
863+725725088+734164059+749829292+748862794+739149002+733063457+732167894
850+736273861+743793859+747903002+746015474+746664236+750628216+753512886
836+754814646+754481736+759990747+772851773+779287873+775123089+772130194
823+773744748+773902851+775050390+785314248+796437554+796491785+796712999
809+800423474+797735550+793892970+792739726+796296156+802474104+798949789
796+784993513+771656827+770070152+780161791+790974304+794385630+788332670
782+782744254+787566507+798632995+804990338+796817578+782549743+781278451
769+791540133+800129795+798877972+791087293+791252395+793051814+783306201
755+778873736+787784368+798299556+807722081+810438826+804050779+801798638
742+806776464+805443531+795023687+789453623+794724892+800036863+802477927
728+811908687+824628432+826556251+818812803+812718141+810547286+809474975
715+811291334+818719753+830965365+836332508+825017690+812933062+812383525
701+811907687+807260654+803027405+795908310+787301002+784468563+785309542
688+786282274+790448000+799501854+798215975+774534203+755160143+764034955
674+785685036+805514230+821501079+829014667+825583519+813024112+798441307
661+793254324+799349398+815466412+838887032+850588755+843021937+834151477
647+836002950+842750080+843928087+838733047+829766655+818937203+814211118
634+818614704+829247409+844354518+855089214+852262656+844176593+839652078
620+834185651+830486822+831933627+830864316+823984669+818358963+823623762
607+838468895+849986164+851158054+849106483+853210214+857026914+851445321
593+849982047+861809405+870358719+870426830+872660149+876971744+882049384
580+892728497+900392600+890390482+877775315+886192641+901835876+906464852
566+909642318+910281552+897773552+892398940+908526011+922011919+918838923
553+912108262+913564713+919413222+915544645+904652493+903286857+911070242
539+917678091+914845887+907146023+911151411+918954206+913342970+908166045
526+914083488+920075983+924570972+925561644+915878202+910718687+926240051
512+944258591+943938974+941291811+951199938+955905495+950060163+952909895
499+964327056+969868182+965629640+958418906+958652531+964716314+964601266
485+960176623+967738382+984782309+992126088+990211915+985989960+981070540
472+980898203+976695187+962548635+956097007+963401026+970487418+972476995
458+975793625+978186929+974044848+973318269+979804365+978737642+969886710
445+967373534+973521897+983165578+986843174+977299777+969261239+981578433
431+1004571624+1013502078+1005423543+998639476+1003735585+1016978574+1024348822
418+1014272593+997326187+989685494+992888840+1002246313+1010448365+1007793321
404+995304142+985910673+988540661+1000238502+1008563130+1003735467+992628394
391+986762358+987802730+992922719+996080069+997472174+1002361361+1005275675
377+1005877971+1012105974+1018859221+1019096728+1015867032+1010665168
366+1005889029+1009089669+1019220010+1027301603+1031897641+1034660558
354+1030554827+1020940672+1016092069+1018682296+1024936649+1034226128
342+1043489963+1047581813+1048288335+1046772007+1040664934+1032230904
331+1023911451+1020612232+1023747232+1020005231+1009214246+1010802096
319+1025954553+1035552709+1032904605+1026801415+1024757254+1027857668
308+1029600446+1027648159+1030010290+1034952178+1030917381+1022729445
296+1024873714+1033963212+1038395971+1038239045+1038004714+1037433003
285+1035687285+1038967329+1046547087+1046371809+1041678721+1043412676
273+1046630020+1039330354+1017701800+996013605+988345856+990712810+995196623
260+1000404486+1010456364+1023779229+1033784170+1044487869+1055953967
248+1059350706+1053374680+1045735281+1046031135+1055026642+1065688110
236+1066916230+1054343412+1042389243+1042122797+1046238175+1051899172
225+1063627716+1073741823+1070483071+1050611999+1021576612+1002121031+997111855
211+994359172+995197329+1005866678+1018068589+1019597504+1011689660+1011818589
198+1024589270+1029091788+1017376184+1005871384+1003349386+1006417450
186+1018895100+1039273536+1049611387+1046238175+1041481681+1035300262
175+1030055697+1034104257+1036733892+1029465870+1027566990+1038786052
163+1049272478+1045184744+1024226834+998523722+986543555+991661661+1000981726
150+1008180108+1014372819+1009443518+993885805+988006829+994295061+1001732361
136+1006758947+1008872631+1012351009+1020385195+1025184391+1020121102
125+1007714504+995326023+995025110+1003452082+1003934742+1002027392+1014993937
111+1037563344+1044298945+1024772312+1005582117+1010256736+1024751372
100+1031180415+1032184556+1029536687+1018765347+1003941095+987549107+964149191
86+943723230+937281365+924955230+887646034+835139679+772694552+686867979
73+572356221+439782573+307238629+195316437+114405224+61856696+29631022+8316424
57+0+9665414+20599871+24416791+23179893+31858062+34558676+21877913+6761790
40+8552093+17862496+20822041+15290562+7638223+9650857+5609164+1001082+6682930
22+6968712-1244780-72699+3093430+4934742+6813506+4804386+1225605-1363769
5+1403647+0
##END=
